frame_start	frame_end	Left-Cerebral-White-Matter	Left-Cerebellum-White-Matter	Left-Cerebellum-Cortex	Left-Thalamus	Left-Caudate	Left-Putamen	Left-Pallidum	Brain-Stem	Left-Hippocampus	Left-Amygdala	CSF	Left-Accumbens-area	Left-VentralDC	Left-choroid-plexus	Right-Cerebral-White-Matter	Right-Cerebellum-White-Matter	Right-Cerebellum-Cortex	Right-Thalamus	Right-Caudate	Right-Putamen	Right-Pallidum	Right-Hippocampus	Right-Amygdala	Right-Accumbens-area	Right-VentralDC	Right-choroid-plexus	AirCavity	Skull	Vermis	Pons	CSF-ExtraCerebral	Head-ExtraCerebral	ctx-lh-bankssts	ctx-lh-caudalanteriorcingulate	ctx-lh-caudalmiddlefrontal	ctx-lh-cuneus	ctx-lh-entorhinal	ctx-lh-fusiform	ctx-lh-inferiorparietal	ctx-lh-inferiortemporal	ctx-lh-isthmuscingulate	ctx-lh-lateraloccipital	ctx-lh-lateralorbitofrontal	ctx-lh-lingual	ctx-lh-medialorbitofrontal	ctx-lh-middletemporal	ctx-lh-parahippocampal	ctx-lh-paracentral	ctx-lh-parsopercularis	ctx-lh-parsorbitalis	ctx-lh-parstriangularis	ctx-lh-pericalcarine	ctx-lh-postcentral	ctx-lh-posteriorcingulate	ctx-lh-precentral	ctx-lh-precuneus	ctx-lh-rostralanteriorcingulate	ctx-lh-rostralmiddlefrontal	ctx-lh-superiorfrontal	ctx-lh-superiorparietal	ctx-lh-superiortemporal	ctx-lh-supramarginal	ctx-lh-frontalpole	ctx-lh-temporalpole	ctx-lh-transversetemporal	ctx-lh-insula	ctx-rh-bankssts	ctx-rh-caudalanteriorcingulate	ctx-rh-caudalmiddlefrontal	ctx-rh-cuneus	ctx-rh-entorhinal	ctx-rh-fusiform	ctx-rh-inferiorparietal	ctx-rh-inferiortemporal	ctx-rh-isthmuscingulate	ctx-rh-lateraloccipital	ctx-rh-lateralorbitofrontal	ctx-rh-lingual	ctx-rh-medialorbitofrontal	ctx-rh-middletemporal	ctx-rh-parahippocampal	ctx-rh-paracentral	ctx-rh-parsopercularis	ctx-rh-parsorbitalis	ctx-rh-parstriangularis	ctx-rh-pericalcarine	ctx-rh-postcentral	ctx-rh-posteriorcingulate	ctx-rh-precentral	ctx-rh-precuneus	ctx-rh-rostralanteriorcingulate	ctx-rh-rostralmiddlefrontal	ctx-rh-superiorfrontal	ctx-rh-superiorparietal	ctx-rh-superiortemporal	ctx-rh-supramarginal	ctx-rh-frontalpole	ctx-rh-temporalpole	ctx-rh-transversetemporal	ctx-rh-insula
0	30	0.0058976635336875916	0.0051728347316384315	0.005726627539843321	0.0077555482275784016	0.0038714571855962276	0.013926433399319649	0.013119684532284737	0.009003612212836742	0.005234733689576387	0.007166695315390825	0.004964430350810289	0.006527623161673546	0.006450999993830919	0.00442518899217248	0.006941885221749544	0.00748171703889966	0.007877878844738007	0.005282026715576649	0.009549076668918133	0.012130877003073692	0.012042326852679253	0.00931846909224987	0.0125666419044137	0.004470447544008493	0.010745778679847717	0.004975446499884129	0.010775036178529263	0.011695923283696175	0.003980449866503477	0.01293663028627634	0.007054388988763094	0.0078184949234128	0.004093139432370663	0.013536104001104832	0.0047429632395505905	0.010886134579777718	0.005756419152021408	0.004171081818640232	0.005698015913367271	0.0039827958680689335	0.007241095881909132	0.004772413056343794	0.009666801430284977	0.006804324220865965	0.007240706589072943	0.005031375680118799	0.0056501394137740135	0.007081259973347187	0.009175609797239304	0.0086516123265028	0.00886871200054884	0.006891322787851095	0.006657587829977274	0.0062689934857189655	0.0061885397881269455	0.007586408406496048	0.008758868090808392	0.005413077771663666	0.007382832933217287	0.007041959557682276	0.009781962260603905	0.007624464109539986	0.0029011412989348173	0.0050252219662070274	0.020802173763513565	0.013164641335606575	0.006798113230615854	0.012062638998031616	0.00476817274466157	0.009054563008248806	0.008920084685087204	0.012373223900794983	0.0070428927429020405	0.01185781043022871	0.006685496307909489	0.008307231590151787	0.010786986909806728	0.008051133714616299	0.011457448825240135	0.00889517366886139	0.016827689483761787	0.006732594687491655	0.012174972333014011	0.008694603107869625	0.009522592648863792	0.006404558662325144	0.006709613371640444	0.009428313933312893	0.006384019274264574	0.007348726503551006	0.0076804799027740955	0.005374396685510874	0.007084921933710575	0.006355197634547949	0.01411782018840313	0.007355174049735069	0.01360395085066557	0.011652342975139618	0.022177312523126602	0.013306926004588604
30	60	0.2719423174858093	0.2709215581417084	0.36540931463241577	0.3609267473220825	0.29633933305740356	0.37939146161079407	0.2755076289176941	0.3101711869239807	0.3124712407588959	0.30327168107032776	0.18930195271968842	0.2837830185890198	0.33122843503952026	0.23404192924499512	0.2781197130680084	0.29428553581237793	0.38039788603782654	0.3813260793685913	0.2880234718322754	0.3763580024242401	0.2836799621582031	0.3197903335094452	0.32980602979660034	0.35259878635406494	0.3256308436393738	0.2799685299396515	0.1186077743768692	0.12270006537437439	0.3986915647983551	0.3290935754776001	0.38134920597076416	0.0884113609790802	0.3654029071331024	0.3890174627304077	0.38197994232177734	0.5155983567237854	0.2608130872249603	0.34746018052101135	0.33969464898109436	0.29061323404312134	0.488476425409317	0.35495632886886597	0.35183680057525635	0.4440150856971741	0.3817306160926819	0.31593579053878784	0.3661491572856903	0.38406893610954285	0.3982796370983124	0.37320661544799805	0.4035691022872925	0.451175332069397	0.40299785137176514	0.4432218074798584	0.3750070035457611	0.43530890345573425	0.41976526379585266	0.3679773807525635	0.40695682168006897	0.3695712983608246	0.3928339183330536	0.3666037917137146	0.44212600588798523	0.30522438883781433	0.5642125010490417	0.45829927921295166	0.3471120297908783	0.41553252935409546	0.398838609457016	0.42587393522262573	0.39747512340545654	0.3565255105495453	0.38940873742103577	0.3507583737373352	0.468658983707428	0.4027320444583893	0.40148264169692993	0.4518885612487793	0.4275828003883362	0.331613689661026	0.4183725416660309	0.3874296545982361	0.40435999631881714	0.3819696009159088	0.402352899312973	0.4470125734806061	0.4162972569465637	0.44561687111854553	0.385333389043808	0.4265584647655487	0.4548953175544739	0.40009158849716187	0.4180753529071808	0.3519485294818878	0.40387022495269775	0.3880877196788788	0.439918577671051	0.359552264213562	0.5114749073982239	0.4423825442790985
60	90	0.9062431454658508	0.97981858253479	1.2589843273162842	1.342655897140503	1.012938141822815	1.3819646835327148	1.0453647375106812	0.993194043636322	1.0354058742523193	1.0168331861495972	0.6086441874504089	1.1389968395233154	1.0262898206710815	0.785250723361969	0.9221152663230896	0.9912857413291931	1.2935880422592163	1.257246494293213	1.032904028892517	1.25021493434906	0.9320660829544067	1.0628184080123901	1.0368400812149048	1.0653676986694336	1.037500023841858	0.8950389623641968	0.3842034637928009	0.43435466289520264	1.2497721910476685	1.1181540489196777	1.1156600713729858	0.34232932329177856	1.2954970598220825	1.3124717473983765	1.294808268547058	1.4288861751556396	1.012324333190918	1.1537290811538696	1.1052404642105103	1.0670278072357178	1.4699219465255737	1.2132724523544312	1.222769856452942	1.4089356660842896	1.2758128643035889	1.1012605428695679	1.2015998363494873	1.295722484588623	1.324756383895874	1.1961748600006104	1.305719017982483	1.4763096570968628	1.2753795385360718	1.4822334051132202	1.2679985761642456	1.350616455078125	1.2784414291381836	1.2847672700881958	1.3309741020202637	1.1995000839233398	1.2380907535552979	1.2398574352264404	1.5140528678894043	1.2555243968963623	1.7259241342544556	1.3175647258758545	1.30521559715271	1.3920811414718628	1.3640577793121338	1.3282952308654785	1.0901801586151123	1.1998975276947021	1.2669329643249512	1.2091546058654785	1.5371739864349365	1.2742581367492676	1.278598666191101	1.3946830034255981	1.345267653465271	1.1383452415466309	1.168744683265686	1.3073294162750244	1.366876244544983	1.3113548755645752	1.3716117143630981	1.4423799514770508	1.2969591617584229	1.5109816789627075	1.3101768493652344	1.3523383140563965	1.3381266593933105	1.3663512468338013	1.3492863178253174	1.1506693363189697	1.2386229038238525	1.28350031375885	1.5508588552474976	1.1635223627090454	1.7026913166046143	1.2982715368270874
90	120	1.3420703411102295	1.4221410751342773	1.8259050846099854	1.9008384943008423	1.5704487562179565	1.9285074472427368	1.4562004804611206	1.4139057397842407	1.518641710281372	1.5059279203414917	0.843139111995697	1.6647636890411377	1.4883019924163818	1.1698449850082397	1.346444010734558	1.452940583229065	1.8798236846923828	1.9514260292053223	1.648373007774353	1.9301235675811768	1.3704094886779785	1.5020442008972168	1.4478588104248047	1.8910915851593018	1.5383825302124023	1.2538225650787354	0.48672303557395935	0.5879172086715698	1.843317985534668	1.6086885929107666	1.5089900493621826	0.4916170537471771	1.7965749502182007	1.843201756477356	1.9036093950271606	2.1628615856170654	1.3778115510940552	1.665063738822937	1.6985775232315063	1.6150583028793335	2.140244960784912	1.7792787551879883	1.761293888092041	2.0024056434631348	1.802245020866394	1.693402886390686	1.5535762310028076	2.0034828186035156	1.893535852432251	1.7729068994522095	1.8990418910980225	2.205854892730713	1.889984369277954	2.135563850402832	1.871407389640808	2.0162172317504883	1.773030400276184	1.9138000011444092	1.911094069480896	1.807668685913086	1.7745469808578491	1.7957885265350342	2.114898681640625	1.6120015382766724	2.4204916954040527	1.8100769519805908	1.9651814699172974	1.9271279573440552	1.9765175580978394	2.025127410888672	1.4562233686447144	1.6931275129318237	1.8607250452041626	1.6997758150100708	2.0963480472564697	1.8704525232315063	1.8777319192886353	1.9857285022735596	1.9247862100601196	1.7386442422866821	1.642804503440857	1.9556328058242798	2.0129919052124023	2.0754685401916504	2.0502655506134033	2.2334749698638916	1.8633404970169067	2.2382123470306396	1.8906128406524658	1.9829919338226318	1.862369418144226	2.0442965030670166	1.9711488485336304	1.7159174680709839	1.7868393659591675	1.8031938076019287	2.3429934978485107	1.5611125230789185	2.381883144378662	1.827783226966858
120	150	1.488558053970337	1.6434359550476074	2.0306453704833984	2.067561626434326	1.7424300909042358	2.267392873764038	1.7877360582351685	1.457371473312378	1.7351806163787842	1.6111557483673096	0.93621826171875	1.9352600574493408	1.6398074626922607	1.263879656791687	1.4947175979614258	1.6273099184036255	2.052370309829712	2.099233627319336	1.8208692073822021	2.204538345336914	1.6000880002975464	1.5839499235153198	1.5035349130630493	1.8732812404632568	1.6399832963943481	1.378394365310669	0.48319634795188904	0.650434136390686	1.9744608402252197	1.7875480651855469	1.6086742877960205	0.540935218334198	2.086538076400757	1.9599539041519165	2.1593785285949707	2.3668487071990967	1.6796936988830566	1.8846837282180786	1.9165971279144287	1.7946088314056396	2.1950292587280273	2.044991970062256	2.0296263694763184	2.2175686359405518	2.0826356410980225	1.8784221410751343	1.7447618246078491	2.177996873855591	2.08752179145813	2.0564005374908447	2.1043708324432373	2.6166787147521973	2.1109611988067627	2.3774495124816895	2.0794613361358643	2.242502212524414	1.9599411487579346	2.187622547149658	2.130293130874634	1.9862982034683228	1.9372210502624512	2.0302066802978516	2.2900197505950928	1.7755517959594727	2.595545530319214	1.9738315343856812	2.108980894088745	2.0424580574035645	2.1688003540039062	2.2705788612365723	1.6751927137374878	1.8699849843978882	2.114969491958618	1.845423698425293	2.2418532371520996	2.106628179550171	2.0706233978271484	2.1324853897094727	2.1291792392730713	1.8728387355804443	1.7220712900161743	2.106374502182007	2.187756299972534	2.243010997772217	2.205362319946289	2.487419605255127	2.1151604652404785	2.258136510848999	2.1252636909484863	2.226595163345337	1.9361778497695923	2.262436866760254	2.136765241622925	1.9627081155776978	1.9450446367263794	2.0311427116394043	2.5309314727783203	1.5556161403656006	2.661834955215454	1.956384301185608
150	180	1.5355639457702637	1.6525535583496094	2.06595516204834	2.168138027191162	1.8450442552566528	2.3094122409820557	1.7346446514129639	1.512120246887207	1.7355802059173584	1.4754409790039062	0.9273125529289246	1.982946515083313	1.722320795059204	1.3746190071105957	1.5384801626205444	1.649691104888916	2.102492332458496	2.123246908187866	1.8395103216171265	2.2365267276763916	1.686765432357788	1.7359167337417603	1.563507080078125	1.9757938385009766	1.6275862455368042	1.4475375413894653	0.490873783826828	0.6356076598167419	2.128035545349121	1.800678014755249	1.5851616859436035	0.5593118071556091	2.115380048751831	1.9297889471054077	2.149872303009033	2.4061405658721924	1.6560497283935547	1.9725128412246704	1.977298378944397	1.8671550750732422	2.1976406574249268	2.089822769165039	2.057612895965576	2.287966012954712	2.0452566146850586	1.9409728050231934	1.78494131565094	2.2286407947540283	2.1225192546844482	2.068063735961914	2.1365842819213867	2.4500114917755127	2.16033935546875	2.4457128047943115	2.1361420154571533	2.2895381450653076	1.9614136219024658	2.220858573913574	2.151794910430908	1.993713617324829	1.959556221961975	2.0837690830230713	2.374786853790283	1.7102527618408203	2.6684958934783936	1.9762792587280273	2.204444646835327	2.0549376010894775	2.241692066192627	2.2103476524353027	1.5679895877838135	1.9751778841018677	2.117331027984619	1.9224318265914917	2.1787362098693848	2.1144280433654785	2.0800278186798096	2.251323938369751	2.1359264850616455	1.9647523164749146	1.638319730758667	2.1455776691436768	2.198446035385132	2.2562272548675537	2.243511438369751	2.561284303665161	2.1839518547058105	2.312995672225952	2.14717173576355	2.251816511154175	1.9533696174621582	2.3335816860198975	2.1470415592193604	2.0146241188049316	1.9248942136764526	2.0861217975616455	2.4661009311676025	1.6106981039047241	2.6645469665527344	1.9703648090362549
180	240	1.509248971939087	1.5994608402252197	2.0257210731506348	2.078242301940918	1.7448686361312866	2.3426012992858887	1.7892125844955444	1.4463891983032227	1.7504042387008667	1.5693026781082153	0.9218801856040955	1.9871459007263184	1.6468675136566162	1.3525724411010742	1.5156612396240234	1.6540709733963013	2.048567056655884	2.134869337081909	1.8316597938537598	2.1987361907958984	1.633500099182129	1.7136565446853638	1.445905327796936	1.9499130249023438	1.670048475265503	1.4550508260726929	0.48473528027534485	0.6392902135848999	2.0177645683288574	1.6978473663330078	1.5401948690414429	0.5676959753036499	2.0567681789398193	1.8413561582565308	2.140857696533203	2.3203632831573486	1.4788687229156494	1.8901829719543457	1.9372564554214478	1.8047040700912476	2.102872610092163	2.038933038711548	1.9940054416656494	2.229269027709961	2.0684738159179688	1.87308669090271	1.7613410949707031	2.1391117572784424	2.115804433822632	1.9505192041397095	2.1485249996185303	2.5185534954071045	2.1101231575012207	2.3596155643463135	2.0761489868164062	2.160001039505005	1.9601621627807617	2.1733906269073486	2.117669105529785	1.9646395444869995	1.9291355609893799	2.0332770347595215	2.259398937225342	1.660581350326538	2.5919694900512695	1.9432425498962402	2.097270965576172	2.0056819915771484	2.166841745376587	2.2315618991851807	1.5634292364120483	1.8861576318740845	2.0759470462799072	1.8270643949508667	2.116389513015747	2.074841022491455	2.0088322162628174	2.155122756958008	2.1146442890167236	1.9022598266601562	1.6825804710388184	2.140139579772949	2.074389696121216	2.1222586631774902	2.1952688694000244	2.486032485961914	2.10080885887146	2.263516426086426	2.096412181854248	2.1973605155944824	2.017171859741211	2.2233057022094727	2.1236965656280518	1.9235044717788696	1.8981503248214722	2.038145065307617	2.2993533611297607	1.5052136182785034	2.575242042541504	1.9264588356018066
240	300	1.4745879173278809	1.5570950508117676	1.940761685371399	2.0520126819610596	1.7899376153945923	2.175645351409912	1.7178525924682617	1.4638375043869019	1.740834355354309	1.5430290699005127	0.9136330485343933	1.9364696741104126	1.632757306098938	1.3875558376312256	1.4721393585205078	1.5926319360733032	1.9440819025039673	2.100708246231079	1.7450056076049805	2.053105115890503	1.6686242818832397	1.6624711751937866	1.4578014612197876	1.9044523239135742	1.6390706300735474	1.4569405317306519	0.46345698833465576	0.6277045607566833	1.866563320159912	1.6626254320144653	1.4637465476989746	0.5751017928123474	1.9507086277008057	1.821292519569397	2.0256505012512207	2.313713788986206	1.5797276496887207	1.8479632139205933	1.8806401491165161	1.7747690677642822	2.0147628784179688	1.9912292957305908	1.9424952268600464	2.207818031311035	1.961331844329834	1.8231899738311768	1.6955199241638184	2.046599864959717	2.042069673538208	1.992871642112732	2.0300815105438232	2.360487937927246	2.0232961177825928	2.2221133708953857	2.0252959728240967	2.0931589603424072	1.904929518699646	2.0807485580444336	1.9971425533294678	1.9117121696472168	1.8693881034851074	1.9658269882202148	2.229940176010132	1.6423883438110352	2.4502556324005127	1.84792959690094	2.075582265853882	1.9899910688400269	2.0422751903533936	2.1377711296081543	1.4701862335205078	1.8456926345825195	1.989023208618164	1.7864991426467896	2.050750255584717	2.0215506553649902	1.9388588666915894	2.1375184059143066	2.009190797805786	1.8257544040679932	1.6914581060409546	2.091235876083374	2.0084073543548584	2.0161571502685547	2.068809747695923	2.4349722862243652	2.013579845428467	2.197486400604248	1.9977964162826538	2.094722270965576	1.9431209564208984	2.123969078063965	2.0180106163024902	1.8765928745269775	1.832886815071106	1.956812858581543	2.1717052459716797	1.4835143089294434	2.4354159832000732	1.884872555732727
300	360	1.4259063005447388	1.518435001373291	1.8509399890899658	2.0207855701446533	1.6317721605300903	2.117882251739502	1.6419687271118164	1.4064621925354004	1.7231380939483643	1.4957832098007202	0.8884944319725037	1.9599374532699585	1.6448519229888916	1.3308241367340088	1.4287748336791992	1.5366209745407104	1.8565903902053833	2.0568816661834717	1.6417533159255981	2.052499294281006	1.6013691425323486	1.659794807434082	1.4283437728881836	1.9317219257354736	1.5810130834579468	1.4963032007217407	0.4644656777381897	0.6404773592948914	1.8490018844604492	1.598597526550293	1.402343511581421	0.5826873779296875	1.8703662157058716	1.8324973583221436	1.911946177482605	2.183839797973633	1.4297878742218018	1.7561346292495728	1.8019745349884033	1.6835073232650757	1.8407188653945923	1.9361587762832642	1.8439836502075195	2.0941925048828125	1.8495888710021973	1.748340368270874	1.6037945747375488	1.9517967700958252	1.9196659326553345	1.8519513607025146	1.8969727754592896	2.3006179332733154	1.9202269315719604	2.1493239402770996	1.9024218320846558	1.9776134490966797	1.7335597276687622	1.9790796041488647	1.9087729454040527	1.8225826025009155	1.7760037183761597	1.8395919799804688	2.049480676651001	1.5703825950622559	2.320077657699585	1.821742296218872	1.961365818977356	1.8146531581878662	1.9339873790740967	2.1206414699554443	1.4155124425888062	1.7491599321365356	1.9052683115005493	1.6890815496444702	1.9246299266815186	1.958348035812378	1.8927699327468872	2.050396203994751	1.8903732299804688	1.7596971988677979	1.5837230682373047	1.9503520727157593	1.9107458591461182	1.96038818359375	1.971822738647461	2.343803644180298	1.9323636293411255	2.038607597351074	1.908396601676941	1.9995384216308594	1.8327510356903076	2.019543170928955	1.9087257385253906	1.8017244338989258	1.7625101804733276	1.8460150957107544	2.126934051513672	1.4631246328353882	2.26535701751709	1.8344142436981201
360	480	1.3760168552398682	1.4447944164276123	1.7256755828857422	1.8954442739486694	1.5593512058258057	1.9431886672973633	1.6019999980926514	1.3839458227157593	1.6779135465621948	1.413762092590332	0.8670573234558105	1.796801209449768	1.5480093955993652	1.303668737411499	1.3720542192459106	1.473913311958313	1.741390347480774	1.9074201583862305	1.5460995435714722	1.8901640176773071	1.5339066982269287	1.628946304321289	1.4385833740234375	1.6727708578109741	1.5589534044265747	1.4533814191818237	0.4637027680873871	0.6372072100639343	1.6919052600860596	1.5466139316558838	1.3203996419906616	0.5946235060691833	1.790693759918213	1.712525486946106	1.799329400062561	2.0914361476898193	1.479694128036499	1.6620625257492065	1.6912118196487427	1.5965349674224854	1.7773513793945312	1.8383326530456543	1.7319852113723755	2.0154247283935547	1.7453807592391968	1.6525200605392456	1.5492157936096191	1.828684687614441	1.7929478883743286	1.6732679605484009	1.7924180030822754	2.2249021530151367	1.8326002359390259	1.9606640338897705	1.7976378202438354	1.8483744859695435	1.719059944152832	1.8415015935897827	1.771150827407837	1.7317566871643066	1.6830542087554932	1.7645211219787598	1.858909010887146	1.4877426624298096	2.192962169647217	1.7183682918548584	1.8636237382888794	1.743032455444336	1.8142215013504028	1.9724562168121338	1.3758800029754639	1.6870827674865723	1.7913142442703247	1.597646713256836	1.7537885904312134	1.8816384077072144	1.747091293334961	1.9818121194839478	1.791821837425232	1.6693391799926758	1.5323197841644287	1.790902018547058	1.7764713764190674	1.8189983367919922	1.8438313007354736	2.2436318397521973	1.8119479417800903	1.9032241106033325	1.7936475276947021	1.8303998708724976	1.7514209747314453	1.8826978206634521	1.7858635187149048	1.6930224895477295	1.6544897556304932	1.7366878986358643	1.919887900352478	1.4024012088775635	2.185725212097168	1.7267911434173584
480	600	1.3259830474853516	1.3789016008377075	1.5857837200164795	1.844873070716858	1.4758199453353882	1.8492519855499268	1.6112123727798462	1.3547604084014893	1.653086543083191	1.439667820930481	0.8554867506027222	1.7137871980667114	1.5083110332489014	1.3233070373535156	1.3228046894073486	1.4182521104812622	1.5955082178115845	1.845857858657837	1.4453848600387573	1.7984765768051147	1.5088634490966797	1.638333797454834	1.376395344734192	1.6597785949707031	1.4863393306732178	1.4613643884658813	0.4790264666080475	0.6536629796028137	1.5364766120910645	1.5138099193572998	1.2437597513198853	0.605771541595459	1.6784141063690186	1.5537092685699463	1.630384087562561	2.0023961067199707	1.3526718616485596	1.5832496881484985	1.6117666959762573	1.508225440979004	1.583967685699463	1.797921895980835	1.6169559955596924	1.9019830226898193	1.6402056217193604	1.5324000120162964	1.4767357110977173	1.6711020469665527	1.6775890588760376	1.5557485818862915	1.692474603652954	2.1122748851776123	1.711774468421936	1.804005742073059	1.6779097318649292	1.6931512355804443	1.6056042909622192	1.7063653469085693	1.6267048120498657	1.6125946044921875	1.5912059545516968	1.6354399919509888	1.6650006771087646	1.4213905334472656	2.071420669555664	1.6355574131011963	1.6879178285598755	1.6579039096832275	1.6797268390655518	1.9266326427459717	1.3099311590194702	1.5970484018325806	1.6777393817901611	1.50591242313385	1.6244314908981323	1.8229544162750244	1.6174077987670898	1.8588351011276245	1.6730209589004517	1.5498594045639038	1.4215980768203735	1.6857924461364746	1.6244945526123047	1.6254377365112305	1.703580617904663	2.1314525604248047	1.7061045169830322	1.7398775815963745	1.6601632833480835	1.6955431699752808	1.6724542379379272	1.759842038154602	1.6491990089416504	1.5945687294006348	1.5562855005264282	1.6286773681640625	1.6625968217849731	1.3055870532989502	2.076842784881592	1.6569277048110962
600	900	1.2444990873336792	1.298886775970459	1.4361706972122192	1.6830999851226807	1.2983810901641846	1.6565693616867065	1.4997663497924805	1.2966039180755615	1.6252962350845337	1.3997223377227783	0.8093781471252441	1.5890384912490845	1.4593607187271118	1.2298258543014526	1.2432056665420532	1.3106262683868408	1.4271602630615234	1.6826460361480713	1.2617725133895874	1.6048729419708252	1.4519824981689453	1.6078081130981445	1.355447769165039	1.4786134958267212	1.4506568908691406	1.3771934509277344	0.497322678565979	0.6626479029655457	1.330350637435913	1.4172409772872925	1.1248432397842407	0.6171715259552002	1.4863942861557007	1.356772541999817	1.4235787391662598	1.811142086982727	1.2486748695373535	1.438470721244812	1.4343940019607544	1.3417940139770508	1.402230143547058	1.6306978464126587	1.3795268535614014	1.7735460996627808	1.4347879886627197	1.3945685625076294	1.3755919933319092	1.4766491651535034	1.4674797058105469	1.317259669303894	1.4898395538330078	1.9360315799713135	1.532983660697937	1.5763291120529175	1.495578646659851	1.499315857887268	1.4572726488113403	1.4745523929595947	1.4236023426055908	1.4456186294555664	1.441520094871521	1.4558830261230469	1.313186526298523	1.2703421115875244	1.891504168510437	1.5136240720748901	1.5613235235214233	1.4237034320831299	1.424532413482666	1.7046864032745361	1.1965274810791016	1.4282556772232056	1.5034044981002808	1.3390146493911743	1.4406938552856445	1.660300850868225	1.3604657649993896	1.7222756147384644	1.464756965637207	1.3874200582504272	1.3471697568893433	1.5136700868606567	1.4214600324630737	1.331535816192627	1.4904004335403442	1.956491231918335	1.5283305644989014	1.5241881608963013	1.4755779504776	1.5007233619689941	1.4833146333694458	1.5009034872055054	1.422285556793213	1.43369460105896	1.4041227102279663	1.4348822832107544	1.360804557800293	1.189852237701416	1.8986263275146484	1.5061631202697754
900	1200	1.1477149724960327	1.186104416847229	1.218206763267517	1.498511552810669	1.1003742218017578	1.433835506439209	1.3863354921340942	1.1961568593978882	1.551905870437622	1.2868986129760742	0.7299291491508484	1.3279600143432617	1.371814250946045	1.1548446416854858	1.1467918157577515	1.1983060836791992	1.2172296047210693	1.523683786392212	1.0918307304382324	1.4106816053390503	1.3248608112335205	1.5319780111312866	1.2733293771743774	1.3663172721862793	1.3584938049316406	1.2980375289916992	0.4640425741672516	0.6462571024894714	1.1119089126586914	1.3238731622695923	0.9815967679023743	0.6371843814849854	1.3315938711166382	1.2218297719955444	1.2451635599136353	1.656947135925293	1.1829427480697632	1.278635859489441	1.2758740186691284	1.1936701536178589	1.2365492582321167	1.501684546470642	1.2478773593902588	1.6292128562927246	1.2840582132339478	1.2108756303787231	1.2087401151657104	1.3186484575271606	1.2997504472732544	1.211565613746643	1.3216571807861328	1.7802060842514038	1.3781874179840088	1.3483531475067139	1.332831621170044	1.3163347244262695	1.267795205116272	1.3081204891204834	1.240270972251892	1.3036435842514038	1.262057900428772	1.2774516344070435	1.227372169494629	1.181296706199646	1.6556159257888794	1.335882544517517	1.375266671180725	1.2736607789993286	1.2370450496673584	1.5631904602050781	1.1422358751296997	1.293418049812317	1.314291000366211	1.1932010650634766	1.2449748516082764	1.5157302618026733	1.2265899181365967	1.5948091745376587	1.266190767288208	1.221518874168396	1.1940191984176636	1.330241322517395	1.2169575691223145	1.2133699655532837	1.307861089706421	1.8498480319976807	1.377673625946045	1.3239381313323975	1.3068138360977173	1.32048499584198	1.2772026062011719	1.325250506401062	1.24436354637146	1.2770493030548096	1.2329418659210205	1.2671291828155518	1.217332363128662	1.1144505739212036	1.6444240808486938	1.3397804498672485
1200	1500	1.078216314315796	1.090358018875122	1.056003451347351	1.377274751663208	0.977465033531189	1.2976919412612915	1.2855889797210693	1.1386332511901855	1.5289026498794556	1.1869840621948242	0.6906501054763794	1.2532482147216797	1.263085126876831	1.0906898975372314	1.0687285661697388	1.106080174446106	1.0581624507904053	1.3506096601486206	0.9781043529510498	1.258076548576355	1.2576390504837036	1.4570297002792358	1.151395320892334	1.1829440593719482	1.28767991065979	1.225490689277649	0.44602853059768677	0.6262325048446655	0.9719098806381226	1.2373814582824707	0.8722395300865173	0.645763099193573	1.1963967084884644	1.0858564376831055	1.0828930139541626	1.5178097486495972	1.1042031049728394	1.1591076850891113	1.150508999824524	1.0762726068496704	1.1058682203292847	1.3885406255722046	1.1133360862731934	1.5016306638717651	1.1197586059570312	1.0963516235351562	1.0922648906707764	1.1847726106643677	1.1433348655700684	1.1068658828735352	1.1774578094482422	1.6503722667694092	1.2574185132980347	1.2062879800796509	1.216430425643921	1.193093180656433	1.1354386806488037	1.1566331386566162	1.0905293226242065	1.1832256317138672	1.1431677341461182	1.1432194709777832	1.0820101499557495	1.0949044227600098	1.505494236946106	1.1999109983444214	1.2231935262680054	1.1310659646987915	1.0995409488677979	1.4457603693008423	1.017151117324829	1.1482011079788208	1.1812957525253296	1.0581086874008179	1.123459815979004	1.3888890743255615	1.1271984577178955	1.448128342628479	1.1317487955093384	1.0741232633590698	1.0785382986068726	1.174620509147644	1.1003605127334595	1.1075761318206787	1.1731468439102173	1.6841439008712769	1.2467598915100098	1.1592143774032593	1.1817115545272827	1.1809630393981934	1.1420308351516724	1.1744002103805542	1.0804702043533325	1.160609483718872	1.09596848487854	1.1291710138320923	1.0971999168395996	0.9830799698829651	1.5518969297409058	1.208323359489441
